#      z         IWC          R_eff
#     (km)     (g/m^3)         (um)
     10.236   0.000000000   9.490000000
     10.229   0.000000000   9.490000000
     10.222   0.000000000   9.490000000
     10.215   0.000000000   9.490000000
     10.208   0.000000000   9.490000000
     10.200   0.000000000   9.490000000
     10.193   0.000000000   9.490000000
     10.186   0.000000000   9.490000000
     10.179   0.000000000   9.490000000
     10.172   0.000000000   9.490000000
     10.165   0.000000000   9.490000000
     10.158   0.000000000   9.490000000
     10.151   0.000000000   9.490000000
     10.144   0.000000000   9.490000000
     10.137   0.000000000   9.490000000
     10.130   0.000000000   9.490000000
     10.123   0.000000000   9.490000000
     10.116   0.000000000   9.490000000
     10.109   0.000000000   9.490000000
     10.102   0.000000018   9.490000000
     10.095   0.000000102   20.948094971
     10.089   0.000000364   28.805681723
     10.082   0.000000932   28.796715924
     10.075   0.000002019   28.536285754
     10.068   0.000004217   28.373964597
     10.061   0.000008458   28.726741220
     10.054   0.000014866   28.489394026
     10.047   0.000023617   28.599102734
     10.040   0.000039044   29.142060157
     10.033   0.000060026   29.289407394
     10.026   0.000085162   30.007384339
     10.019   0.000114914   31.151201256
     10.012   0.000164380   32.383228245
     10.005   0.000191403   32.060259400
     9.998   0.000221524   32.594456570
     9.991   0.000234430   32.857195038
     9.983   0.000262848   33.525735489
     9.976   0.000314329   34.898264857
     9.969   0.000328066   35.662185837
     9.962   0.000360366   36.616347643
     9.955   0.000366681   37.003839680
     9.948   0.000329750   36.424091377
     9.941   0.000335514   37.329955376
     9.934   0.000409106   40.145198000
     9.927   0.000403780   41.128882003
     9.920   0.000411523   42.823790864
     9.913   0.000410965   43.337007810
     9.906   0.000359599   42.554984248
     9.899   0.000325297   43.462219764
     9.892   0.000394390   46.474531700
     9.885   0.000398598   47.150922910
     9.878   0.000400286   47.753263061
     9.872   0.000343930   47.685156460
     9.865   0.000283703   47.719186114
     9.858   0.000246020   48.787896958
     9.851   0.000228406   49.765050790
     9.844   0.000234626   51.319140766
     9.837   0.000240813   52.475465054
     9.830   0.000230036   52.791710914
     9.823   0.000232594   55.200056522
     9.816   0.000221294   55.669504945
     9.809   0.000215081   56.689732446
     9.802   0.000212248   57.901259424
     9.795   0.000204499   58.738049120
     9.788   0.000161538   56.769767980
     9.781   0.000119005   55.328189774
     9.774   0.000096657   56.746670452
     9.767   0.000077118   57.977737015
     9.759   0.000067251   60.153295635
     9.752   0.000067252   61.270664446
     9.745   0.000075727   62.867577071
     9.738   0.000081557   62.996448833
     9.731   0.000087050   64.536659920
     9.724   0.000087967   64.811836637
     9.717   0.000078207   64.359104726
     9.710   0.000068798   65.084401285
     9.703   0.000064597   66.406173573
     9.696   0.000057998   67.089858931
     9.689   0.000042848   63.254279667
     9.682   0.000044112   67.637462053
     9.675   0.000032258   66.557506216
     9.668   0.000032469   70.296802733
     9.661   0.000031199   70.678594057
     9.655   0.000029163   70.817528467
     9.648   0.000029283   72.123875725
     9.641   0.000024069   72.046830610
     9.634   0.000019215   72.450049629
     9.627   0.000016154   72.984999861
     9.620   0.000013739   71.192785981
     9.613   0.000012292   70.368208981
     9.606   0.000010743   72.405004175
     9.599   0.000009490   74.883850175
     9.592   0.000008196   76.220298070
     9.585   0.000008100   78.728000517
     9.578   0.000007596   78.603421571
     9.571   0.000007650   80.360237916
     9.564   0.000006415   80.235535279
     9.557   0.000005487   60.674581619
     9.550   0.000004582   61.263475800
     9.542   0.000003610   60.825208493
     9.535   0.000002720   61.219856434
     9.528   0.000002391   41.355669964
     9.521   0.000002083   41.530693125
     9.514   0.000001809   41.633000365
     9.507   0.000001148   41.663050069
     9.500   0.000000932   21.189054678
     9.493   0.000000673   21.179303076
     9.486   0.000000010   21.179106625
     9.479   0.000000000   9.490000000
     9.472   0.000000000   9.490000000
     9.465   0.000000000   9.490000000
     9.458   0.000000000   9.490000000
     9.451   0.000000000   9.490000000
     9.444   0.000000000   9.490000000
     9.438   0.000000000   9.490000000
     9.431   0.000000000   9.490000000
     9.424   0.000000000   9.490000000
     9.417   0.000000000   9.490000000
     9.410   0.000000000   9.490000000
     9.403   0.000000000   9.490000000
     9.396   0.000000000   9.490000000
     9.389   0.000000000   9.490000000
     9.382   0.000000000   9.490000000
     9.375   0.000000000   9.490000000
     9.368   0.000000000   9.490000000
     9.361   0.000000000   9.490000000
     9.354   0.000000000   9.490000000
     9.347   0.000000000   9.490000000
     9.340   0.000000000   9.490000000
     9.333   0.000000000   9.490000000
     9.325   0.000000000   9.490000000
     9.318   0.000000000   9.490000000
     9.311   0.000000000   9.490000000
     9.304   0.000000000   9.490000000
     9.297   0.000000000   9.490000000
     9.290   0.000000000   9.490000000
     9.283   0.000000000   9.490000000
     9.276   0.000000000   9.490000000
     9.269   0.000000000   9.490000000
     9.262   0.000000000   9.490000000
     9.255   0.000000000   9.490000000
     9.248   0.000000000   9.490000000
     9.241   0.000000000   9.490000000
     9.234   0.000000000   9.490000000
     9.227   0.000000000   9.490000000
     9.220   0.000000000   9.490000000
     9.214   0.000000000   9.490000000
     9.207   0.000000000   9.490000000
     9.200   0.000000000   9.490000000
     9.193   0.000000000   9.490000000
     9.186   0.000000000   9.490000000
     9.179   0.000000000   9.490000000
     9.172   0.000000000   9.490000000
     9.165   0.000000000   9.490000000
     9.158   0.000000000   9.490000000
     9.151   0.000000000   9.490000000
     9.144   0.000000000   9.490000000
     9.137   0.000000000   9.490000000
     9.130   0.000000000   9.490000000
     9.123   0.000000000   9.490000000
     9.116   0.000000000   9.490000000
     9.108   0.000000000   9.490000000
     9.101   0.000000000   9.490000000
     9.094   0.000000000   9.490000000
     9.087   0.000000000   9.490000000
     9.080   0.000000000   9.490000000
     9.073   0.000000000   9.490000000
     9.066   0.000000000   9.490000000
     9.059   0.000000000   9.490000000
     9.052   0.000000000   9.490000000
     9.045   0.000000000   9.490000000
     9.038   0.000000000   9.490000000
     9.031   0.000000000   9.490000000
     9.024   0.000000000   9.490000000
     9.017   0.000000000   9.490000000
     9.010   0.000000000   9.490000000
     9.003   0.000000000   9.490000000
     8.997   0.000000000   9.490000000
     8.990   0.000000000   9.490000000
     8.983   0.000000000   9.490000000
     8.976   0.000000000   9.490000000
     8.969   0.000000000   9.490000000
     8.962   0.000000000   9.490000000
     8.955   0.000000000   9.490000000
     8.948   0.000000000   9.490000000
     8.941   0.000000000   9.490000000
     8.934   0.000000000   9.490000000
     8.927   0.000000000   9.490000000
     8.920   0.000000000   9.490000000
     8.913   0.000000000   9.490000000
     8.906   0.000000000   9.490000000
     8.899   0.000000000   9.490000000
     8.892   0.000000000   9.490000000
     8.884   0.000000000   9.490000000
     8.877   0.000000000   9.490000000
     8.870   0.000000000   9.490000000
     8.863   0.000000000   9.490000000
     8.856   0.000000000   9.490000000
     8.849   0.000000000   9.490000000
     8.842   0.000000000   9.490000000
     8.835   0.000000000   9.490000000
     8.828   0.000000000   9.490000000
     8.821   0.000000000   9.490000000
     8.814   0.000000000   9.490000000
     8.807   0.000000000   9.490000000
     8.800   0.000000000   9.490000000
     8.793   0.000000000   9.490000000
     8.786   0.000000000   9.490000000
     8.780   0.000000000   9.490000000
     8.773   0.000000000   9.490000000
     8.766   0.000000000   9.490000000
     8.759   0.000000000   9.490000000
     8.752   0.000000000   9.490000000
     8.745   0.000000000   9.490000000
     8.738   0.000000000   9.490000000
     8.731   0.000000000   9.490000000
     8.724   0.000000000   9.490000000
     8.717   0.000000000   9.490000000
     8.710   0.000000000   9.490000000
     8.703   0.000000000   9.490000000
     8.696   0.000000000   9.490000000
     8.689   0.000000000   9.490000000
     8.682   0.000000000   9.490000000
     8.675   0.000000000   9.490000000
     8.667   0.000000000   9.490000000
     8.660   0.000000000   9.490000000
     8.653   0.000000000   9.490000000
     8.646   0.000000000   9.490000000
     8.639   0.000000000   9.490000000
     8.632   0.000000000   9.490000000
     8.625   0.000000000   9.490000000
     8.618   0.000000000   9.490000000
     8.611   0.000000000   9.490000000
     8.604   0.000000000   9.490000000
     8.597   0.000000000   9.490000000
     8.590   0.000000000   9.490000000
     8.583   0.000000000   9.490000000
     8.576   0.000000000   9.490000000
     8.569   0.000000000   9.490000000
     8.562   0.000000000   9.490000000
     8.556   0.000000000   9.490000000
     8.549   0.000000000   9.490000000
     8.542   0.000000000   9.490000000
     8.535   0.000000000   9.490000000
     8.528   0.000000000   9.490000000
     8.521   0.000000000   9.490000000
     8.514   0.000000000   9.490000000
     8.507   0.000000000   9.490000000
     8.500   0.000000000   9.490000000
     8.493   0.000000000   9.490000000
     8.486   0.000000000   9.490000000
     8.479   0.000000000   9.490000000
     8.472   0.000000000   9.490000000
     8.465   0.000000000   9.490000000
     8.458   0.000000000   9.490000000
     8.457   0.000000000   9.490000000
